xi,theta,phi
0,1,0
0.000100,1.000000,-0.000175
0.001100,0.999999,-0.000644
0.002100,0.999998,-0.001007
0.003100,0.999997,-0.001352
0.004100,0.999996,-0.001690
0.005100,0.999994,-0.002027
0.006100,0.999992,-0.002362
0.007100,0.999989,-0.002696
0.008100,0.999986,-0.003030
0.009100,0.999983,-0.003364
0.010100,0.999979,-0.003698
0.011100,0.999976,-0.004031
0.012100,0.999971,-0.004365
0.013100,0.999967,-0.004698
0.014100,0.999962,-0.005032
0.015100,0.999957,-0.005365
0.016100,0.999951,-0.005699
0.017100,0.999945,-0.006032
0.018100,0.999939,-0.006365
0.019100,0.999933,-0.006699
0.020100,0.999926,-0.007032
0.021100,0.999919,-0.007365
0.022100,0.999911,-0.007698
0.023100,0.999903,-0.008032
0.024100,0.999895,-0.008365
0.025100,0.999886,-0.008698
0.026100,0.999878,-0.009031
0.027100,0.999868,-0.009364
0.028100,0.999859,-0.009697
0.029100,0.999849,-0.010031
0.030100,0.999839,-0.010364
0.031100,0.999828,-0.010697
0.032100,0.999817,-0.011030
0.033100,0.999806,-0.011363
0.034100,0.999795,-0.011696
0.035100,0.999783,-0.012029
0.036100,0.999771,-0.012362
0.037100,0.999758,-0.012695
0.038100,0.999745,-0.013028
0.039100,0.999732,-0.013361
0.040100,0.999719,-0.013693
0.041100,0.999705,-0.014026
0.042100,0.999690,-0.014359
0.043100,0.999676,-0.014692
0.044100,0.999661,-0.015025
0.045100,0.999646,-0.015358
0.046100,0.999630,-0.015690
0.047100,0.999615,-0.016023
0.048100,0.999598,-0.016356
0.049100,0.999582,-0.016688
0.050100,0.999565,-0.017021
0.051100,0.999548,-0.017354
0.052100,0.999530,-0.017686
0.053100,0.999512,-0.018019
0.054100,0.999494,-0.018351
0.055100,0.999476,-0.018684
0.056100,0.999457,-0.019016
0.057100,0.999438,-0.019349
0.058100,0.999418,-0.019681
0.059100,0.999398,-0.020013
0.060100,0.999378,-0.020346
0.061100,0.999358,-0.020678
0.062100,0.999337,-0.021010
0.063100,0.999316,-0.021342
0.064100,0.999294,-0.021675
0.065100,0.999272,-0.022007
0.066100,0.999250,-0.022339
0.067100,0.999228,-0.022671
0.068100,0.999205,-0.023003
0.069100,0.999182,-0.023335
0.070100,0.999158,-0.023667
0.071100,0.999134,-0.023999
0.072100,0.999110,-0.024331
0.073100,0.999086,-0.024663
0.074100,0.999061,-0.024995
0.075100,0.999036,-0.025326
0.076100,0.999010,-0.025658
0.077100,0.998984,-0.025990
0.078100,0.998958,-0.026321
0.079100,0.998932,-0.026653
0.080100,0.998905,-0.026984
0.081100,0.998878,-0.027316
0.082100,0.998850,-0.027647
0.083100,0.998822,-0.027979
0.084100,0.998794,-0.028310
0.085100,0.998766,-0.028642
0.086100,0.998737,-0.028973
0.087100,0.998708,-0.029304
0.088100,0.998678,-0.029635
0.089100,0.998649,-0.029966
0.090100,0.998618,-0.030297
0.091100,0.998588,-0.030628
0.092100,0.998557,-0.030959
0.093100,0.998526,-0.031290
0.094100,0.998495,-0.031621
0.095100,0.998463,-0.031952
0.096100,0.998431,-0.032283
0.097100,0.998398,-0.032614
0.098100,0.998365,-0.032944
0.099100,0.998332,-0.033275
0.100100,0.998299,-0.033605
0.101100,0.998265,-0.033936
0.102100,0.998231,-0.034266
0.103100,0.998197,-0.034597
0.104100,0.998162,-0.034927
0.105100,0.998127,-0.035257
0.106100,0.998091,-0.035588
0.107100,0.998056,-0.035918
0.108100,0.998019,-0.036248
0.109100,0.997983,-0.036578
0.110100,0.997946,-0.036908
0.111100,0.997909,-0.037238
0.112100,0.997872,-0.037568
0.113100,0.997834,-0.037898
0.114100,0.997796,-0.038227
0.115100,0.997758,-0.038557
0.116100,0.997719,-0.038887
0.117100,0.997680,-0.039216
0.118100,0.997640,-0.039546
0.119100,0.997601,-0.039875
0.120100,0.997561,-0.040204
0.121100,0.997520,-0.040534
0.122100,0.997480,-0.040863
0.123100,0.997439,-0.041192
0.124100,0.997397,-0.041521
0.125100,0.997356,-0.041850
0.126100,0.997314,-0.042179
0.127100,0.997271,-0.042508
0.128100,0.997229,-0.042837
0.129100,0.997186,-0.043165
0.130100,0.997142,-0.043494
0.131100,0.997099,-0.043823
0.132100,0.997055,-0.044151
0.133100,0.997010,-0.044480
0.134100,0.996966,-0.044808
0.135100,0.996921,-0.045136
0.136100,0.996875,-0.045465
0.137100,0.996830,-0.045793
0.138100,0.996784,-0.046121
0.139100,0.996737,-0.046449
0.140100,0.996691,-0.046777
0.141100,0.996644,-0.047105
0.142100,0.996597,-0.047432
0.143100,0.996549,-0.047760
0.144100,0.996501,-0.048088
0.145100,0.996453,-0.048415
0.146100,0.996404,-0.048743
0.147100,0.996355,-0.049070
0.148100,0.996306,-0.049398
0.149100,0.996257,-0.049725
0.150100,0.996207,-0.050052
0.151100,0.996156,-0.050379
0.152100,0.996106,-0.050706
0.153100,0.996055,-0.051033
0.154100,0.996004,-0.051360
0.155100,0.995952,-0.051686
0.156100,0.995901,-0.052013
0.157100,0.995848,-0.052340
0.158100,0.995796,-0.052666
0.159100,0.995743,-0.052992
0.160100,0.995690,-0.053319
0.161100,0.995636,-0.053645
0.162100,0.995583,-0.053971
0.163100,0.995528,-0.054297
0.164100,0.995474,-0.054623
0.165100,0.995419,-0.054949
0.166100,0.995364,-0.055275
0.167100,0.995309,-0.055600
0.168100,0.995253,-0.055926
0.169100,0.995197,-0.056251
0.170100,0.995140,-0.056577
0.171100,0.995084,-0.056902
0.172100,0.995027,-0.057227
0.173100,0.994969,-0.057553
0.174100,0.994911,-0.057878
0.175100,0.994853,-0.058203
0.176100,0.994795,-0.058527
0.177100,0.994736,-0.058852
0.178100,0.994677,-0.059177
0.179100,0.994618,-0.059501
0.180100,0.994558,-0.059826
0.181100,0.994498,-0.060150
0.182100,0.994438,-0.060474
0.183100,0.994377,-0.060799
0.184100,0.994316,-0.061123
0.185100,0.994255,-0.061447
0.186100,0.994194,-0.061770
0.187100,0.994132,-0.062094
0.188100,0.994069,-0.062418
0.189100,0.994007,-0.062742
0.190100,0.993944,-0.063065
0.191100,0.993881,-0.063388
0.192100,0.993817,-0.063712
0.193100,0.993753,-0.064035
0.194100,0.993689,-0.064358
0.195100,0.993625,-0.064681
0.196100,0.993560,-0.065004
0.197100,0.993495,-0.065326
0.198100,0.993429,-0.065649
0.199100,0.993363,-0.065971
0.200100,0.993297,-0.066294
0.201100,0.993231,-0.066616
0.202100,0.993164,-0.066938
0.203100,0.993097,-0.067260
0.204100,0.993029,-0.067582
0.205100,0.992962,-0.067904
0.206100,0.992894,-0.068226
0.207100,0.992825,-0.068548
0.208100,0.992756,-0.068869
0.209100,0.992687,-0.069191
0.210100,0.992618,-0.069512
0.211100,0.992548,-0.069833
0.212100,0.992478,-0.070154
0.213100,0.992408,-0.070475
0.214100,0.992337,-0.070796
0.215100,0.992266,-0.071117
0.216100,0.992195,-0.071438
0.217100,0.992124,-0.071758
0.218100,0.992052,-0.072078
0.219100,0.991979,-0.072399
0.220100,0.991907,-0.072719
0.221100,0.991834,-0.073039
0.222100,0.991761,-0.073359
0.223100,0.991687,-0.073679
0.224100,0.991613,-0.073998
0.225100,0.991539,-0.074318
0.226100,0.991465,-0.074637
0.227100,0.991390,-0.074957
0.228100,0.991315,-0.075276
0.229100,0.991239,-0.075595
0.230100,0.991164,-0.075914
0.231100,0.991088,-0.076233
0.232100,0.991011,-0.076552
0.233100,0.990935,-0.076870
0.234100,0.990857,-0.077189
0.235100,0.990780,-0.077507
0.236100,0.990702,-0.077825
0.237100,0.990624,-0.078143
0.238100,0.990546,-0.078461
0.239100,0.990468,-0.078779
0.240100,0.990389,-0.079097
0.241100,0.990309,-0.079415
0.242100,0.990230,-0.079732
0.243100,0.990150,-0.080049
0.244100,0.990070,-0.080367
0.245100,0.989989,-0.080684
0.246100,0.989908,-0.081001
0.247100,0.989827,-0.081317
0.248100,0.989746,-0.081634
0.249100,0.989664,-0.081951
0.250100,0.989582,-0.082267
0.251100,0.989499,-0.082583
0.252100,0.989417,-0.082899
0.253100,0.989334,-0.083216
0.254100,0.989250,-0.083531
0.255100,0.989167,-0.083847
0.256100,0.989083,-0.084163
0.257100,0.988998,-0.084478
0.258100,0.988914,-0.084794
0.259100,0.988829,-0.085109
0.260100,0.988743,-0.085424
0.261100,0.988658,-0.085739
0.262100,0.988572,-0.086054
0.263100,0.988486,-0.086368
0.264100,0.988399,-0.086683
0.265100,0.988312,-0.086997
0.266100,0.988225,-0.087311
0.267100,0.988138,-0.087626
0.268100,0.988050,-0.087940
0.269100,0.987962,-0.088253
0.270100,0.987873,-0.088567
0.271100,0.987785,-0.088881
0.272100,0.987696,-0.089194
0.273100,0.987606,-0.089507
0.274100,0.987517,-0.089820
0.275100,0.987427,-0.090133
0.276100,0.987336,-0.090446
0.277100,0.987246,-0.090759
0.278100,0.987155,-0.091071
0.279100,0.987064,-0.091384
0.280100,0.986972,-0.091696
0.281100,0.986880,-0.092008
0.282100,0.986788,-0.092320
0.283100,0.986696,-0.092632
0.284100,0.986603,-0.092944
0.285100,0.986510,-0.093255
0.286100,0.986416,-0.093566
0.287100,0.986323,-0.093878
0.288100,0.986228,-0.094189
0.289100,0.986134,-0.094500
0.290100,0.986040,-0.094810
0.291100,0.985945,-0.095121
0.292100,0.985849,-0.095431
0.293100,0.985754,-0.095742
0.294100,0.985658,-0.096052
0.295100,0.985562,-0.096362
0.296100,0.985465,-0.096672
0.297100,0.985368,-0.096981
0.298100,0.985271,-0.097291
0.299100,0.985174,-0.097600
0.300100,0.985076,-0.097910
0.301100,0.984978,-0.098219
0.302100,0.984879,-0.098528
0.303100,0.984781,-0.098836
0.304100,0.984682,-0.099145
0.305100,0.984582,-0.099453
0.306100,0.984483,-0.099762
0.307100,0.984383,-0.100070
0.308100,0.984283,-0.100378
0.309100,0.984182,-0.100685
0.310100,0.984081,-0.100993
0.311100,0.983980,-0.101301
0.312100,0.983879,-0.101608
0.313100,0.983777,-0.101915
0.314100,0.983675,-0.102222
0.315100,0.983573,-0.102529
0.316100,0.983470,-0.102836
0.317100,0.983367,-0.103142
0.318100,0.983264,-0.103448
0.319100,0.983160,-0.103755
0.320100,0.983056,-0.104061
0.321100,0.982952,-0.104367
0.322100,0.982847,-0.104672
0.323100,0.982743,-0.104978
0.324100,0.982637,-0.105283
0.325100,0.982532,-0.105588
0.326100,0.982426,-0.105893
0.327100,0.982320,-0.106198
0.328100,0.982214,-0.106503
0.329100,0.982107,-0.106807
0.330100,0.982000,-0.107112
0.331100,0.981893,-0.107416
0.332100,0.981785,-0.107720
0.333100,0.981677,-0.108024
0.334100,0.981569,-0.108328
0.335100,0.981461,-0.108631
0.336100,0.981352,-0.108934
0.337100,0.981243,-0.109238
0.338100,0.981134,-0.109541
0.339100,0.981024,-0.109843
0.340100,0.980914,-0.110146
0.341100,0.980804,-0.110448
0.342100,0.980693,-0.110751
0.343100,0.980582,-0.111053
0.344100,0.980471,-0.111355
0.345100,0.980359,-0.111657
0.346100,0.980248,-0.111958
0.347100,0.980135,-0.112260
0.348100,0.980023,-0.112561
0.349100,0.979910,-0.112862
0.350100,0.979797,-0.113163
0.351100,0.979684,-0.113464
0.352100,0.979570,-0.113764
0.353100,0.979456,-0.114064
0.354100,0.979342,-0.114365
0.355100,0.979228,-0.114665
0.356100,0.979113,-0.114964
0.357100,0.978998,-0.115264
0.358100,0.978882,-0.115563
0.359100,0.978767,-0.115863
0.360100,0.978651,-0.116162
0.361100,0.978534,-0.116461
0.362100,0.978418,-0.116759
0.363100,0.978301,-0.117058
0.364100,0.978184,-0.117356
0.365100,0.978066,-0.117655
0.366100,0.977948,-0.117953
0.367100,0.977830,-0.118250
0.368100,0.977712,-0.118548
0.369100,0.977593,-0.118845
0.370100,0.977474,-0.119143
0.371100,0.977355,-0.119440
0.372100,0.977235,-0.119737
0.373100,0.977115,-0.120033
0.374100,0.976995,-0.120330
0.375100,0.976875,-0.120626
0.376100,0.976754,-0.120922
0.377100,0.976633,-0.121218
0.378100,0.976512,-0.121514
0.379100,0.976390,-0.121810
0.380100,0.976268,-0.122105
0.381100,0.976146,-0.122400
0.382100,0.976023,-0.122695
0.383100,0.975900,-0.122990
0.384100,0.975777,-0.123285
0.385100,0.975654,-0.123579
0.386100,0.975530,-0.123873
0.387100,0.975406,-0.124167
0.388100,0.975282,-0.124461
0.389100,0.975157,-0.124755
0.390100,0.975032,-0.125048
0.391100,0.974907,-0.125341
0.392100,0.974781,-0.125635
0.393100,0.974656,-0.125927
0.394100,0.974530,-0.126220
0.395100,0.974403,-0.126513
0.396100,0.974277,-0.126805
0.397100,0.974150,-0.127097
0.398100,0.974022,-0.127389
0.399100,0.973895,-0.127681
0.400100,0.973767,-0.127972
0.401100,0.973639,-0.128263
0.402100,0.973510,-0.128554
0.403100,0.973382,-0.128845
0.404100,0.973253,-0.129136
0.405100,0.973124,-0.129427
0.406100,0.972994,-0.129717
0.407100,0.972864,-0.130007
0.408100,0.972734,-0.130297
0.409100,0.972603,-0.130587
0.410100,0.972473,-0.130876
0.411100,0.972342,-0.131165
0.412100,0.972210,-0.131454
0.413100,0.972079,-0.131743
0.414100,0.971947,-0.132032
0.415100,0.971815,-0.132321
0.416100,0.971682,-0.132609
0.417100,0.971550,-0.132897
0.418100,0.971417,-0.133185
0.419100,0.971283,-0.133472
0.420100,0.971150,-0.133760
0.421100,0.971016,-0.134047
0.422100,0.970881,-0.134334
0.423100,0.970747,-0.134621
0.424100,0.970612,-0.134908
0.425100,0.970477,-0.135194
0.426100,0.970342,-0.135480
0.427100,0.970206,-0.135766
0.428100,0.970070,-0.136052
0.429100,0.969934,-0.136338
0.430100,0.969798,-0.136623
0.431100,0.969661,-0.136908
0.432100,0.969524,-0.137193
0.433100,0.969386,-0.137478
0.434100,0.969249,-0.137763
0.435100,0.969111,-0.138047
0.436100,0.968973,-0.138331
0.437100,0.968834,-0.138615
0.438100,0.968696,-0.138899
0.439100,0.968556,-0.139182
0.440100,0.968417,-0.139466
0.441100,0.968278,-0.139749
0.442100,0.968138,-0.140031
0.443100,0.967997,-0.140314
0.444100,0.967857,-0.140596
0.445100,0.967716,-0.140879
0.446100,0.967575,-0.141161
0.447100,0.967434,-0.141442
0.448100,0.967292,-0.141724
0.449100,0.967151,-0.142005
0.450100,0.967008,-0.142287
0.451100,0.966866,-0.142567
0.452100,0.966723,-0.142848
0.453100,0.966580,-0.143129
0.454100,0.966437,-0.143409
0.455100,0.966293,-0.143689
0.456100,0.966150,-0.143969
0.457100,0.966006,-0.144248
0.458100,0.965861,-0.144528
0.459100,0.965716,-0.144807
0.460100,0.965572,-0.145086
0.461100,0.965426,-0.145365
0.462100,0.965281,-0.145643
0.463100,0.965135,-0.145921
0.464100,0.964989,-0.146200
0.465100,0.964843,-0.146477
0.466100,0.964696,-0.146755
0.467100,0.964549,-0.147032
0.468100,0.964402,-0.147310
0.469100,0.964254,-0.147587
0.470100,0.964107,-0.147863
0.471100,0.963959,-0.148140
0.472100,0.963810,-0.148416
0.473100,0.963662,-0.148692
0.474100,0.963513,-0.148968
0.475100,0.963364,-0.149244
0.476100,0.963215,-0.149519
0.477100,0.963065,-0.149794
0.478100,0.962915,-0.150069
0.479100,0.962765,-0.150344
0.480100,0.962614,-0.150618
0.481100,0.962464,-0.150893
0.482100,0.962313,-0.151167
0.483100,0.962161,-0.151441
0.484100,0.962010,-0.151714
0.485100,0.961858,-0.151987
0.486100,0.961706,-0.152261
0.487100,0.961553,-0.152533
0.488100,0.961401,-0.152806
0.489100,0.961248,-0.153079
0.490100,0.961094,-0.153351
0.491100,0.960941,-0.153623
0.492100,0.960787,-0.153895
0.493100,0.960633,-0.154166
0.494100,0.960479,-0.154437
0.495100,0.960324,-0.154708
0.496100,0.960169,-0.154979
0.497100,0.960014,-0.155250
0.498100,0.959859,-0.155520
0.499100,0.959703,-0.155790
0.500100,0.959547,-0.156060
0.501100,0.959391,-0.156330
0.502100,0.959235,-0.156599
0.503100,0.959078,-0.156869
0.504100,0.958921,-0.157138
0.505100,0.958764,-0.157406
0.506100,0.958606,-0.157675
0.507100,0.958448,-0.157943
0.508100,0.958290,-0.158211
0.509100,0.958132,-0.158479
0.510100,0.957973,-0.158746
0.511100,0.957814,-0.159014
0.512100,0.957655,-0.159281
0.513100,0.957496,-0.159548
0.514100,0.957336,-0.159814
0.515100,0.957176,-0.160081
0.516100,0.957016,-0.160347
0.517100,0.956856,-0.160613
0.518100,0.956695,-0.160878
0.519100,0.956534,-0.161144
0.520100,0.956373,-0.161409
0.521100,0.956211,-0.161674
0.522100,0.956049,-0.161939
0.523100,0.955887,-0.162203
0.524100,0.955725,-0.162467
0.525100,0.955562,-0.162731
0.526100,0.955399,-0.162995
0.527100,0.955236,-0.163258
0.528100,0.955073,-0.163522
0.529100,0.954909,-0.163785
0.530100,0.954745,-0.164047
0.531100,0.954581,-0.164310
0.532100,0.954417,-0.164572
0.533100,0.954252,-0.164834
0.534100,0.954087,-0.165096
0.535100,0.953922,-0.165358
0.536100,0.953756,-0.165619
0.537100,0.953590,-0.165880
0.538100,0.953424,-0.166141
0.539100,0.953258,-0.166402
0.540100,0.953092,-0.166662
0.541100,0.952925,-0.166922
0.542100,0.952758,-0.167182
0.543100,0.952590,-0.167441
0.544100,0.952423,-0.167701
0.545100,0.952255,-0.167960
0.546100,0.952087,-0.168219
0.547100,0.951919,-0.168477
0.548100,0.951750,-0.168736
0.549100,0.951581,-0.168994
0.550100,0.951412,-0.169252
0.551100,0.951243,-0.169509
0.552100,0.951073,-0.169767
0.553100,0.950903,-0.170024
0.554100,0.950733,-0.170281
0.555100,0.950563,-0.170538
0.556100,0.950392,-0.170794
0.557100,0.950221,-0.171050
0.558100,0.950050,-0.171306
0.559100,0.949878,-0.171562
0.560100,0.949707,-0.171817
0.561100,0.949535,-0.172072
0.562100,0.949363,-0.172327
0.563100,0.949190,-0.172582
0.564100,0.949017,-0.172836
0.565100,0.948844,-0.173090
0.566100,0.948671,-0.173344
0.567100,0.948498,-0.173598
0.568100,0.948324,-0.173851
0.569100,0.948150,-0.174104
0.570100,0.947976,-0.174357
0.571100,0.947801,-0.174610
0.572100,0.947627,-0.174862
0.573100,0.947452,-0.175114
0.574100,0.947276,-0.175366
0.575100,0.947101,-0.175618
0.576100,0.946925,-0.175869
0.577100,0.946749,-0.176120
0.578100,0.946573,-0.176371
0.579100,0.946396,-0.176622
0.580100,0.946220,-0.176872
0.581100,0.946043,-0.177122
0.582100,0.945865,-0.177372
0.583100,0.945688,-0.177622
0.584100,0.945510,-0.177871
0.585100,0.945332,-0.178120
0.586100,0.945154,-0.178369
0.587100,0.944975,-0.178617
0.588100,0.944797,-0.178866
0.589100,0.944618,-0.179114
0.590100,0.944438,-0.179362
0.591100,0.944259,-0.179609
0.592100,0.944079,-0.179856
0.593100,0.943899,-0.180103
0.594100,0.943719,-0.180350
0.595100,0.943539,-0.180597
0.596100,0.943358,-0.180843
0.597100,0.943177,-0.181089
0.598100,0.942996,-0.181335
0.599100,0.942814,-0.181580
0.600100,0.942632,-0.181825
0.601100,0.942451,-0.182070
0.602100,0.942268,-0.182315
0.603100,0.942086,-0.182559
0.604100,0.941903,-0.182803
0.605100,0.941720,-0.183047
0.606100,0.941537,-0.183291
0.607100,0.941354,-0.183534
0.608100,0.941170,-0.183777
0.609100,0.940986,-0.184020
0.610100,0.940802,-0.184263
0.611100,0.940618,-0.184505
0.612100,0.940433,-0.184747
0.613100,0.940248,-0.184989
0.614100,0.940063,-0.185231
0.615100,0.939878,-0.185472
0.616100,0.939692,-0.185713
0.617100,0.939506,-0.185954
0.618100,0.939320,-0.186194
0.619100,0.939134,-0.186434
0.620100,0.938947,-0.186674
0.621100,0.938761,-0.186914
0.622100,0.938573,-0.187153
0.623100,0.938386,-0.187393
0.624100,0.938199,-0.187632
0.625100,0.938011,-0.187870
0.626100,0.937823,-0.188109
0.627100,0.937635,-0.188347
0.628100,0.937446,-0.188584
0.629100,0.937258,-0.188822
0.630100,0.937069,-0.189059
0.631100,0.936879,-0.189296
0.632100,0.936690,-0.189533
0.633100,0.936500,-0.189770
0.634100,0.936311,-0.190006
0.635100,0.936120,-0.190242
0.636100,0.935930,-0.190478
0.637100,0.935739,-0.190713
0.638100,0.935549,-0.190948
0.639100,0.935358,-0.191183
0.640100,0.935166,-0.191418
0.641100,0.934975,-0.191652
0.642100,0.934783,-0.191886
0.643100,0.934591,-0.192120
0.644100,0.934399,-0.192354
0.645100,0.934206,-0.192587
0.646100,0.934014,-0.192820
0.647100,0.933821,-0.193053
0.648100,0.933627,-0.193285
0.649100,0.933434,-0.193517
0.650100,0.933240,-0.193749
0.651100,0.933047,-0.193981
0.652100,0.932852,-0.194212
0.653100,0.932658,-0.194444
0.654100,0.932464,-0.194674
0.655100,0.932269,-0.194905
0.656100,0.932074,-0.195135
0.657100,0.931878,-0.195365
0.658100,0.931683,-0.195595
0.659100,0.931487,-0.195825
0.660100,0.931291,-0.196054
0.661100,0.931095,-0.196283
0.662100,0.930899,-0.196512
0.663100,0.930702,-0.196740
0.664100,0.930505,-0.196968
0.665100,0.930308,-0.197196
0.666100,0.930111,-0.197424
0.667100,0.929913,-0.197651
0.668100,0.929716,-0.197878
0.669100,0.929518,-0.198105
0.670100,0.929319,-0.198331
0.671100,0.929121,-0.198558
0.672100,0.928922,-0.198784
0.673100,0.928723,-0.199009
0.674100,0.928524,-0.199235
0.675100,0.928325,-0.199460
0.676100,0.928125,-0.199685
0.677100,0.927926,-0.199909
0.678100,0.927726,-0.200134
0.679100,0.927525,-0.200358
0.680100,0.927325,-0.200581
0.681100,0.927124,-0.200805
0.682100,0.926923,-0.201028
0.683100,0.926722,-0.201251
0.684100,0.926521,-0.201474
0.685100,0.926319,-0.201696
0.686100,0.926117,-0.201918
0.687100,0.925915,-0.202140
0.688100,0.925713,-0.202362
0.689100,0.925511,-0.202583
0.690100,0.925308,-0.202804
0.691100,0.925105,-0.203025
0.692100,0.924902,-0.203245
0.693100,0.924698,-0.203465
0.694100,0.924495,-0.203685
0.695100,0.924291,-0.203905
0.696100,0.924087,-0.204124
0.697100,0.923883,-0.204343
0.698100,0.923678,-0.204562
0.699100,0.923474,-0.204780
0.700100,0.923269,-0.204999
0.701100,0.923064,-0.205217
0.702100,0.922858,-0.205434
0.703100,0.922653,-0.205652
0.704100,0.922447,-0.205869
0.705100,0.922241,-0.206086
0.706100,0.922035,-0.206302
0.707100,0.921828,-0.206518
0.708100,0.921622,-0.206734
0.709100,0.921415,-0.206950
0.710100,0.921208,-0.207166
0.711100,0.921001,-0.207381
0.712100,0.920793,-0.207596
